Number of steps: 1001
  Time            x-coordinate    y-coordinate    velocity (x)    velocity (y)
  0.00000000e+00  1.00000000e+00  0.00000000e+00  0.00000000e+00  3.14159265e+00
  1.00000000e-02  9.98026079e-01  3.14159265e-02 -3.95271581e-01  3.13536379e+00
  2.00000000e-02  9.92094568e-01  6.27072758e-02 -7.92505643e-01  3.11653433e+00
  3.00000000e-02  9.82175966e-01  9.37466132e-02 -1.19371692e+00  3.08466694e+00
  4.00000000e-02  9.68220230e-01  1.24400615e-01 -1.60102789e+00  3.03900260e+00
  5.00000000e-02  9.50155408e-01  1.54526665e-01 -2.01673123e+00  2.97841161e+00
  6.00000000e-02  9.27885605e-01  1.83968847e-01 -2.44336342e+00  2.90131659e+00
  7.00000000e-02  9.01288140e-01  2.12552997e-01 -2.88379549e+00  2.80557700e+00
  8.00000000e-02  8.70209696e-01  2.40080387e-01 -3.34134846e+00  2.68831804e+00
  9.00000000e-02  8.34461171e-01  2.66319358e-01 -3.81994458e+00  2.54567563e+00
  1.00000000e-01  7.93810804e-01  2.90993900e-01 -4.32431013e+00  2.37241012e+00
  1.10000000e-01  7.47974968e-01  3.13767560e-01 -4.86025258e+00  2.16130637e+00
  1.20000000e-01  6.96605752e-01  3.34220027e-01 -5.43504501e+00  1.90221192e+00
  1.30000000e-01  6.39274068e-01  3.51811799e-01 -6.05796192e+00  1.58043353e+00
  1.40000000e-01  5.75446514e-01  3.65828698e-01 -6.74101534e+00  1.17393324e+00
  1.50000000e-01  5.04453761e-01  3.75290464e-01 -7.49989622e+00  6.48132993e-01
  1.60000000e-01  4.25448590e-01  3.78791357e-01 -8.35485202e+00 -5.44204070e-02
  1.70000000e-01  3.37356721e-01  3.74202055e-01 -9.32988668e+00 -1.03649963e+00
  1.80000000e-01  2.38850856e-01  3.58061365e-01 -1.04418652e+01 -2.50045509e+00
  1.90000000e-01  1.28519417e-01  3.24192954e-01 -1.16312800e+01 -4.89565216e+00
  2.00000000e-01  6.22525622e-03  2.60148322e-01 -1.22991511e+01 -9.31863237e+00
  2.10000000e-01 -1.17463605e-01  1.37820306e-01 -8.46426846e+00 -1.68140981e+01
  2.20000000e-01 -1.63060113e-01 -7.61336395e-02  9.63196153e-01 -1.88167478e+01
  2.30000000e-01 -9.81996824e-02 -2.38514650e-01  7.61555256e+00 -1.34946648e+01
  2.40000000e-01 -1.07490620e-02 -3.46026937e-01  8.79619987e+00 -9.10503247e+00
  2.50000000e-01  7.77243150e-02 -4.20615299e-01  8.65129148e+00 -6.39790650e+00
  2.60000000e-01  1.62276768e-01 -4.73985067e-01  8.20051124e+00 -4.59293849e+00
  2.70000000e-01  2.41734540e-01 -5.12474069e-01  7.68348919e+00 -3.29285305e+00
  2.80000000e-01  3.15946551e-01 -5.39842127e-01  7.16636624e+00 -2.30138212e+00
  2.90000000e-01  3.85061865e-01 -5.58501712e-01  6.66806167e+00 -1.51282496e+00
  3.00000000e-01  4.49307785e-01 -5.70098627e-01  6.19269569e+00 -8.65452745e-01
  3.10000000e-01  5.08915779e-01 -5.75810766e-01  5.73944557e+00 -3.20764080e-01
  3.20000000e-01  5.64096696e-01 -5.76513908e-01  5.30589495e+00  1.46553636e-01
  3.30000000e-01  6.15033677e-01 -5.72879694e-01  4.88924229e+00  5.53864029e-01
  3.40000000e-01  6.61881542e-01 -5.65436628e-01  4.48673722e+00  9.13497438e-01
  3.50000000e-01  7.04768422e-01 -5.54609745e-01  4.09582150e+00  1.23446243e+00
  3.60000000e-01  7.43797972e-01 -5.40747379e-01  3.71415412e+00  1.52349642e+00
  3.70000000e-01  7.79051504e-01 -5.24139817e-01  3.33959154e+00  1.78573528e+00
  3.80000000e-01  8.10589803e-01 -5.05032673e-01  2.97015176e+00  2.02515374e+00
  3.90000000e-01  8.38454539e-01 -4.83636742e-01  2.60397401e+00  2.24486249e+00
  4.00000000e-01  8.62669283e-01 -4.60135424e-01  2.23927795e+00  2.44731276e+00
  4.10000000e-01  8.83240098e-01 -4.34690487e-01  1.87432349e+00  2.63443889e+00
  4.20000000e-01  9.00155753e-01 -4.07446646e-01  1.50737077e+00  2.80775797e+00
  4.30000000e-01  9.13387514e-01 -3.78535327e-01  1.13663874e+00  2.96843858e+00
  4.40000000e-01  9.22888527e-01 -3.48077874e-01  7.60260761e-01  3.11734583e+00
  4.50000000e-01  9.28592729e-01 -3.16188411e-01  3.76234716e-01  3.25506705e+00
  4.60000000e-01  9.30413222e-01 -2.82976533e-01 -1.76354701e-02  3.38191999e+00
  4.70000000e-01  9.28240020e-01 -2.48550011e-01 -4.23810936e-01  3.49794320e+00
  4.80000000e-01  9.21937003e-01 -2.13017669e-01 -8.45107370e-01  3.60286597e+00
  4.90000000e-01  9.11337872e-01 -1.76492691e-01 -1.28481094e+00  3.69605225e+00
  5.00000000e-01  8.96240784e-01 -1.39096624e-01 -1.74683252e+00  3.77640833e+00
  5.10000000e-01  8.76401222e-01 -1.00964525e-01 -2.23591812e+00  3.84223684e+00
  5.20000000e-01  8.51522422e-01 -6.22518873e-02 -2.75794304e+00  3.89100713e+00
  5.30000000e-01  8.21242361e-01 -2.31443822e-02 -3.32033371e+00  3.91898894e+00
  5.40000000e-01  7.85115748e-01  1.61278914e-02 -3.93268901e+00  3.92065333e+00
  5.50000000e-01  7.42588581e-01  5.52686845e-02 -4.60772177e+00  3.88765732e+00
  5.60000000e-01  6.92961312e-01  9.38810379e-02 -5.36273001e+00  3.80704370e+00
  5.70000000e-01  6.35333981e-01  1.31409558e-01 -6.22196922e+00  3.65786578e+00
  5.80000000e-01  5.68521928e-01  1.67038353e-01 -7.22058607e+00  3.40440316e+00
  5.90000000e-01  4.90922259e-01  1.99497622e-01 -8.41120167e+00  2.98128247e+00
  6.00000000e-01  4.00297895e-01  2.26664003e-01 -9.87413257e+00  2.25702471e+00
  6.10000000e-01  2.93439608e-01  2.44638116e-01 -1.17246043e+01  9.31392865e-01
  6.20000000e-01  1.65805809e-01  2.45291860e-01 -1.40244226e+01 -1.80020258e+00
  6.30000000e-01  1.29511566e-02  2.08634064e-01 -1.55653487e+01 -8.17450565e+00
  6.40000000e-01 -1.45501165e-01  8.18017472e-02 -9.66968988e+00 -1.61551637e+01
  6.50000000e-01 -1.80442641e-01 -1.14469209e-01  1.56129764e-01 -1.73114325e+01
  6.60000000e-01 -1.42378569e-01 -2.64426903e-01  4.84396749e+00 -1.30688020e+01
  6.70000000e-01 -8.35632911e-02 -3.75845249e-01  6.17052013e+00 -9.84202476e+00
  6.80000000e-01 -1.89681667e-02 -4.61267398e-01  6.49756607e+00 -7.61682757e+00
  6.90000000e-01  4.63880304e-02 -5.28181800e-01  6.47418981e+00 -5.99198915e+00
  7.00000000e-01  1.10515629e-01 -5.81107181e-01  6.30736032e+00 -4.73833180e+00
  7.10000000e-01  1.72535237e-01 -6.22948436e-01  6.07586419e+00 -3.72884666e+00
  7.20000000e-01  2.32032913e-01 -6.55684115e-01  5.81364413e+00 -2.88890675e+00
  7.30000000e-01  2.88808119e-01 -6.80726572e-01  5.53652753e+00 -2.17192215e+00
  7.40000000e-01  3.42763464e-01 -6.99122557e-01  5.25220454e+00 -1.54725364e+00
  7.50000000e-01  3.93852210e-01 -7.11671644e-01  4.96440598e+00 -9.93860901e-01
  7.60000000e-01  4.42051583e-01 -7.18999775e-01  4.67481173e+00 -4.96765401e-01
  7.70000000e-01  4.87348445e-01 -7.21606952e-01  4.38398193e+00 -4.49764208e-02
  7.80000000e-01  5.29731222e-01 -7.19899304e-01  4.09183392e+00  3.69780470e-01
  7.90000000e-01  5.69185123e-01 -7.14211343e-01  3.79789424e+00  7.53873370e-01
  8.00000000e-01  6.05689107e-01 -7.04821836e-01  3.50143291e+00  1.11229717e+00
  8.10000000e-01  6.39213781e-01 -6.91965399e-01  3.20153274e+00  1.44903442e+00
  8.20000000e-01  6.69719762e-01 -6.75841148e-01  2.89712069e+00  1.76730530e+00
  8.30000000e-01  6.97156195e-01 -6.56619293e-01  2.58697507e+00  2.06974409e+00
  8.40000000e-01  7.21459263e-01 -6.34446266e-01  2.26971588e+00  2.35852525e+00
  8.50000000e-01  7.42550513e-01 -6.09448788e-01  1.94378115e+00  2.63545383e+00
  8.60000000e-01  7.60334886e-01 -5.81737190e-01  1.60738990e+00  2.90202937e+00
  8.70000000e-01  7.74698311e-01 -5.51408201e-01  1.25849017e+00  3.15948908e+00
  8.80000000e-01  7.85504689e-01 -5.18547408e-01  8.94688452e-01  3.40883296e+00
  8.90000000e-01  7.92592080e-01 -4.83231542e-01  5.13154707e-01  3.65083148e+00
  9.00000000e-01  7.95767784e-01 -4.45530779e-01  1.10493533e-01  3.88601354e+00
  9.10000000e-01  7.94801950e-01 -4.05511271e-01 -3.17432958e-01  4.11462918e+00
  9.20000000e-01  7.89419124e-01 -3.63238195e-01 -7.75753013e-01  4.33657568e+00
  9.30000000e-01  7.79286890e-01 -3.18779757e-01 -1.27093965e+00  4.55126672e+00
  9.40000000e-01  7.64000331e-01 -2.72212861e-01 -1.81133002e+00  4.75740629e+00
  9.50000000e-01  7.43060290e-01 -2.23631632e-01 -2.40790834e+00  4.95259560e+00
  9.60000000e-01  7.15842165e-01 -1.73160949e-01 -3.07552453e+00  5.13263060e+00
  9.70000000e-01  6.81549799e-01 -1.20979020e-01 -3.83486225e+00  5.29019381e+00
  9.80000000e-01  6.39144920e-01 -6.73570725e-02 -4.71575298e+00  5.41228110e+00
  9.90000000e-01  5.87234740e-01 -1.27333977e-02 -5.76302329e+00  5.47477066e+00
  1.00000000e+00  5.23884454e-01  4.21383406e-02 -7.04731991e+00  5.42988109e+00
  1.01000000e+00  4.46288341e-01  9.58642240e-02 -8.68583018e+00  5.17363343e+00
  1.02000000e+00  3.50167850e-01  1.45611009e-01 -1.08793411e+01  4.44769793e+00
  1.03000000e+00  2.28701520e-01  1.84818183e-01 -1.39222929e+01  2.48577178e+00
  1.04000000e+00  7.17219925e-02  1.95326445e-01 -1.72694131e+01 -3.22886206e+00
  1.05000000e+00 -1.16686743e-01  1.20240941e-01 -1.39441877e+01 -1.25543859e+01
  1.06000000e+00 -2.07161761e-01 -5.57612731e-02 -4.90613042e+00 -1.64854977e+01
  1.07000000e+00 -2.14809351e-01 -2.09469012e-01  8.05141275e-01 -1.38399026e+01
  1.08000000e+00 -1.91058936e-01 -3.32559326e-01  3.04351094e+00 -1.11454861e+01
  1.09000000e+00 -1.53939132e-01 -4.32378733e-01  4.02627777e+00 -9.09915334e+00
  1.10000000e+00 -1.10533380e-01 -5.14542393e-01  4.49025755e+00 -7.51958178e+00
  1.11000000e+00 -6.41339814e-02 -5.82770369e-01  4.70275777e+00 -6.25198630e+00
  1.12000000e+00 -1.64782248e-02 -6.39582119e-01  4.77799558e+00 -5.19911083e+00
  1.13000000e+00  3.14259302e-02 -6.86752585e-01  4.77132338e+00 -4.29982540e+00
  1.14000000e+00  7.89482427e-02 -7.25578627e-01  4.71214905e+00 -3.51422616e+00
  1.15000000e+00  1.25668911e-01 -7.57037109e-01  4.61717628e+00 -2.81518418e+00
  1.16000000e+00  1.71291768e-01 -7.81882310e-01  4.49635260e+00 -2.18356031e+00
  1.17000000e+00  2.15595963e-01 -8.00708315e-01  4.35578286e+00 -1.60540530e+00
  1.18000000e+00  2.58407426e-01 -8.13990416e-01  4.19925708e+00 -1.07025702e+00
  1.19000000e+00  2.99581105e-01 -8.22113455e-01  4.02909554e+00 -5.70065986e-01
  1.20000000e+00  3.38989336e-01 -8.25391736e-01  3.84663539e+00 -9.84939674e-02
  1.21000000e+00  3.76513812e-01 -8.24083334e-01  3.65251797e+00  3.49558140e-01
  1.22000000e+00  4.12039696e-01 -8.18400573e-01  3.44685933e+00  7.78276971e-01
  1.23000000e+00  4.45450999e-01 -8.08517795e-01  3.22934811e+00  1.19116860e+00
  1.24000000e+00  4.76626658e-01 -7.94577201e-01  2.99929497e+00  1.59122709e+00
  1.25000000e+00  5.05436898e-01 -7.76693253e-01  2.75564639e+00  1.98105975e+00
  1.26000000e+00  5.31739586e-01 -7.54956006e-01  2.49696874e+00  2.36298207e+00
  1.27000000e+00  5.55376273e-01 -7.29433612e-01  2.22140380e+00  2.73909082e+00
  1.28000000e+00  5.76167662e-01 -7.00174190e-01  1.92659242e+00  3.11132069e+00
  1.29000000e+00  5.93908122e-01 -6.67207198e-01  1.60955860e+00  3.48148728e+00
  1.30000000e+00  6.08358834e-01 -6.30544444e-01  1.26654028e+00  3.85131699e+00
  1.31000000e+00  6.19238927e-01 -5.90180858e-01  8.92743709e-01  4.22246130e+00
  1.32000000e+00  6.26213708e-01 -5.46095218e-01  4.81983918e-01  4.59648760e+00
  1.33000000e+00  6.28878606e-01 -4.98251106e-01  2.61485125e-02  4.97482996e+00
  1.34000000e+00  6.26736678e-01 -4.46598619e-01 -4.85622924e-01  5.35866385e+00
  1.35000000e+00  6.19166147e-01 -3.91077829e-01 -1.06823536e+00  5.74862795e+00
  1.36000000e+00  6.05371971e-01 -3.31626060e-01 -1.74276713e+00  6.14422178e+00
  1.37000000e+00  5.84310804e-01 -2.68193394e-01 -2.54012869e+00  6.54247424e+00
  1.38000000e+00  5.54569397e-01 -2.00776575e-01 -3.50769893e+00  6.93485153e+00
  1.39000000e+00  5.14156826e-01 -1.29496363e-01 -4.72214023e+00  7.29950951e+00
  1.40000000e+00  4.60126593e-01 -5.47863850e-02 -6.31588360e+00  7.57969033e+00
  1.41000000e+00  3.87839154e-01  2.20974434e-02 -8.53465953e+00  7.61397726e+00
  1.42000000e+00  2.89433402e-01  9.74931602e-02 -1.18460594e+01  6.86404150e+00
  1.43000000e+00  1.50917965e-01  1.59378273e-01 -1.66686423e+01  3.21348906e+00
  1.44000000e+00 -4.39394431e-02  1.61762941e-01 -1.76442357e+01 -6.54102953e+00
  1.45000000e+00 -2.01966748e-01  2.85576829e-02 -1.11051529e+01 -1.39847537e+01
  1.46000000e+00 -2.66042500e-01 -1.17932132e-01 -4.27669656e+00 -1.37043991e+01
  1.47000000e+00 -2.87500679e-01 -2.45530299e-01 -1.09571976e+00 -1.18630156e+01
  1.48000000e+00 -2.87956895e-01 -3.55192445e-01  5.48924916e-01 -1.02328464e+01
  1.49000000e+00 -2.76522181e-01 -4.50187226e-01  1.51359167e+00 -8.89691023e+00
  1.50000000e+00 -2.57685062e-01 -5.33130649e-01  2.12870033e+00 -7.78747999e+00
  1.51000000e+00 -2.33948174e-01 -6.05936826e-01  2.54220771e+00 -6.84414565e+00
  1.52000000e+00 -2.06840908e-01 -6.70013562e-01  2.82914367e+00 -6.02408895e+00
  1.53000000e+00 -1.77365301e-01 -7.26418605e-01  3.03129716e+00 -5.29755253e+00
  1.54000000e+00 -1.46214965e-01 -7.75964613e-01  3.17365650e+00 -4.64348856e+00
  1.55000000e+00 -1.13892171e-01 -8.19288376e-01  3.27200257e+00 -4.04662564e+00
  1.56000000e+00 -8.07749131e-02 -8.56897126e-01  3.33673253e+00 -3.49559198e+00
  1.57000000e+00 -4.71575203e-02 -8.89200216e-01  3.37492343e+00 -2.98170910e+00
  1.58000000e+00 -1.32764444e-02 -9.16531308e-01  3.39151036e+00 -2.49820084e+00
  1.59000000e+00  2.06726870e-02 -9.39164233e-01  3.38999063e+00 -2.03966196e+00
  1.60000000e+00  5.45233682e-02 -9.57324547e-01  3.37286066e+00 -1.60169220e+00
  1.61000000e+00  8.81299003e-02 -9.71198077e-01  3.34189517e+00 -1.18063804e+00
  1.62000000e+00  1.21361272e-01 -9.80937308e-01  3.29832922e+00 -7.73405987e-01
  1.63000000e+00  1.54096485e-01 -9.86666196e-01  3.24297825e+00 -3.77324355e-01
  1.64000000e+00  1.86220837e-01 -9.88483795e-01  3.17631667e+00  9.96182399e-03
  1.65000000e+00  2.17622818e-01 -9.86466960e-01  3.09852758e+00  3.90572895e-01
  1.66000000e+00  2.48191388e-01 -9.80672337e-01  3.00953087e+00  7.66460862e-01
  1.67000000e+00  2.77813435e-01 -9.71137743e-01  2.90899411e+00  1.13946496e+00
  1.68000000e+00  3.06371270e-01 -9.57883038e-01  2.79632811e+00  1.51136036e+00
  1.69000000e+00  3.33739998e-01 -9.40910535e-01  2.67066714e+00  1.88390307e+00
  1.70000000e+00  3.59784613e-01 -9.20204976e-01  2.53083249e+00  2.25887371e+00
  1.71000000e+00  3.84356647e-01 -8.95733061e-01  2.37527543e+00  2.63812250e+00
  1.72000000e+00  4.07290122e-01 -8.67442526e-01  2.20199354e+00  3.02361816e+00
  1.73000000e+00  4.28396518e-01 -8.35260698e-01  2.00841025e+00  3.41750327e+00
  1.74000000e+00  4.47458327e-01 -7.99092461e-01  1.79120154e+00  3.82215931e+00
  1.75000000e+00  4.64220549e-01 -7.58817512e-01  1.54604395e+00  4.24028501e+00
  1.76000000e+00  4.78379206e-01 -7.14286761e-01  1.26724156e+00  4.67499164e+00
  1.77000000e+00  4.89565380e-01 -6.65317679e-01  9.47159923e-01  5.12991832e+00
  1.78000000e+00  4.97322404e-01 -6.11688394e-01  5.75340966e-01  5.60936575e+00
  1.79000000e+00  5.01072199e-01 -5.53130364e-01  1.37067589e-01  6.11843246e+00
  1.80000000e+00  5.00063756e-01 -4.89319745e-01 -3.89067779e-01  6.66309277e+00
  1.81000000e+00  4.93290844e-01 -4.19868509e-01 -1.03550321e+00  7.25001870e+00
  1.82000000e+00  4.79353692e-01 -3.44319371e-01 -1.85395975e+00  7.88550704e+00
  1.83000000e+00  4.56211649e-01 -2.62158368e-01 -2.93238441e+00  8.57133257e+00
  1.84000000e+00  4.20706004e-01 -1.72892720e-01 -4.43306220e+00  9.28923476e+00
  1.85000000e+00  3.67550405e-01 -7.63736726e-02 -6.68694320e+00  9.93686585e+00
  1.86000000e+00  2.86967140e-01  2.58445972e-02 -1.04264419e+01  1.00085517e+01
  1.87000000e+00  1.59021566e-01  1.23797362e-01 -1.66296672e+01  6.80966582e+00
  1.88000000e+00 -4.56262039e-02  1.62037914e-01 -1.85768315e+01 -2.88083647e+00
  1.89000000e+00 -2.12515064e-01  6.61806326e-02 -1.28847835e+01 -1.07703872e+01
  1.90000000e+00 -3.03321874e-01 -5.33698310e-02 -7.03112255e+00 -1.15944242e+01
  1.91000000e+00 -3.53137515e-01 -1.65707851e-01 -3.80720584e+00 -1.06827408e+01
  1.92000000e+00 -3.79465991e-01 -2.67024648e-01 -1.88304517e+00 -9.60405469e+00
  1.93000000e+00 -3.90798418e-01 -3.57788945e-01 -6.14640243e-01 -8.60163190e+00
  1.94000000e+00 -3.91758796e-01 -4.39057286e-01  2.83513894e-01 -7.70145775e+00
  1.95000000e+00 -3.85128140e-01 -5.11818100e-01  9.52341376e-01 -6.89164676e+00
  1.96000000e+00 -3.72711968e-01 -5.76890221e-01  1.46869855e+00 -6.15573156e+00
  1.97000000e+00 -3.55754169e-01 -6.34932731e-01  1.87793192e+00 -5.47915494e+00
  1.98000000e+00 -3.35153330e-01 -6.86473320e-01  2.20848265e+00 -4.85010320e+00
  1.99000000e+00 -3.11584516e-01 -7.31934795e-01  2.47905907e+00 -4.25914315e+00
  2.00000000e+00 -2.85572148e-01 -7.71656183e-01  2.70243157e+00 -3.69869622e+00
  2.01000000e+00 -2.57535885e-01 -8.05908720e-01  2.88756606e+00 -3.16258056e+00
  2.02000000e+00 -2.27820827e-01 -8.34907794e-01  3.04088409e+00 -2.64565288e+00
  2.03000000e+00 -1.96718203e-01 -8.58821777e-01  3.16703680e+00 -2.14353565e+00
  2.04000000e+00 -1.64480091e-01 -8.77778507e-01  3.26939466e+00 -1.65240844e+00
  2.05000000e+00 -1.31330310e-01 -8.91869946e-01  3.35036282e+00 -1.16884479e+00
  2.06000000e+00 -9.74728347e-02 -9.01155403e-01  3.41158422e+00 -6.89680375e-01
  2.07000000e+00 -6.30986255e-02 -9.05663554e-01  3.45406632e+00 -2.11901158e-01
  2.08000000e+00 -2.83915082e-02 -9.05393426e-01  3.47825164e+00  2.67457240e-01
  2.09000000e+00  6.46640724e-03 -9.00314409e-01  3.48404260e+00  7.51406628e-01
  2.10000000e+00  4.12893438e-02 -8.90365294e-01  3.47078396e+00  1.24310703e+00
  2.11000000e+00  7.58820865e-02 -8.75452268e-01  3.43719953e+00  1.74597897e+00
  2.12000000e+00  1.10033334e-01 -8.55445714e-01  3.38127260e+00  2.26383671e+00
  2.13000000e+00  1.43507538e-01 -8.30175534e-01  3.30004930e+00  2.80105466e+00
  2.14000000e+00  1.76034320e-01 -7.99424621e-01  3.18932786e+00  3.36278423e+00
  2.15000000e+00  2.07294096e-01 -7.62919850e-01  3.04316836e+00  3.95524581e+00
  2.16000000e+00  2.36897688e-01 -7.20319705e-01  2.85310599e+00  4.58613253e+00
  2.17000000e+00  2.64356215e-01 -6.71197199e-01  2.60684919e+00  5.26517895e+00
  2.18000000e+00  2.89034671e-01 -6.15016126e-01  2.28603521e+00  6.00496863e+00
  2.19000000e+00  3.10076920e-01 -5.51097826e-01  1.86215372e+00  6.82206140e+00
  2.20000000e+00  3.26277746e-01 -4.78574898e-01  1.28864968e+00  7.73842929e+00
  2.21000000e+00  3.35849913e-01 -3.96329241e-01  4.84350640e-01  8.78258477e+00
  2.22000000e+00  3.35964759e-01 -3.02923202e-01 -7.04913294e-01  9.98654519e+00
  2.23000000e+00  3.21751647e-01 -1.96598337e-01 -2.60603064e+00  1.13563799e+01
  2.24000000e+00  2.83844146e-01 -7.57956040e-02 -6.00027729e+00  1.26702888e+01
  2.25000000e+00  2.01746101e-01  5.68074387e-02 -1.25350844e+01  1.20423968e+01
  2.26000000e+00  3.31424573e-02  1.65052333e-01 -1.82315578e+01  3.99582666e+00
  2.27000000e+00 -1.62885054e-01  1.36723972e-01 -1.62596977e+01 -5.63895941e+00
  2.28000000e+00 -2.92051496e-01  5.22731444e-02 -1.07093074e+01 -8.84016524e+00
  2.29000000e+00 -3.77071202e-01 -4.00793330e-02 -7.13687082e+00 -9.09014970e+00
  2.30000000e+00 -4.34788912e-01 -1.29529850e-01 -4.85263706e+00 -8.67122849e+00
  2.31000000e+00 -4.74123944e-01 -2.13503903e-01 -3.26782241e+00 -8.09764101e+00
  2.32000000e+00 -5.00145361e-01 -2.91482670e-01 -2.09322147e+00 -7.50128009e+00
  2.33000000e+00 -5.15988373e-01 -3.63529505e-01 -1.17926451e+00 -6.91932277e+00
  2.34000000e+00 -5.23730651e-01 -4.29869125e-01 -4.41871874e-01 -6.36117005e+00
  2.35000000e+00 -5.24825810e-01 -4.90752906e-01  1.69748877e-01 -5.82724370e+00
  2.36000000e+00 -5.20335673e-01 -5.46413999e-01  6.88114833e-01 -5.31502493e+00
  2.37000000e+00 -5.11063514e-01 -5.97053404e-01  1.13503328e+00 -4.82115648e+00
  2.38000000e+00 -4.97635008e-01 -6.42837129e-01  1.52568446e+00 -4.34219056e+00
  2.39000000e+00 -4.80549825e-01 -6.83897215e-01  1.87095520e+00 -3.87483567e+00
  2.40000000e+00 -4.60215904e-01 -7.20333842e-01  2.17883783e+00 -3.41600978e+00
  2.41000000e+00 -4.36973068e-01 -7.52217411e-01  2.45530216e+00 -2.96281789e+00
  2.42000000e+00 -4.11109860e-01 -7.79590200e-01  2.70485590e+00 -2.51249995e+00
  2.43000000e+00 -3.82875950e-01 -8.02467410e-01  2.93091259e+00 -2.06236724e+00
  2.44000000e+00 -3.52491609e-01 -8.20837545e-01  3.13603510e+00 -1.60973279e+00
