Number of time steps: 1000
Initial temperature [K]: 3.000000e+02
Time [ps]                     Kinetic Energy [epsilon]      Potential Energy [epsilon]    Total Energy [epsilon]        Temperature [K]               Diffusion constant [sigma*sqrt(epsilon/u)]
0.000000e+00                  1.890510e+03                  6.952847e-310                 1.890510e+03                  3.014263e+02                  -nan                          
1.000000e-02                  1.875515e+03                  -4.240256e+03                 -2.364741e+03                 2.990354e+02                  9.238989e-04                  
2.000000e-02                  1.830011e+03                  -4.194900e+03                 -2.364889e+03                 2.917803e+02                  1.833141e-03                  
3.000000e-02                  1.752763e+03                  -4.117854e+03                 -2.365091e+03                 2.794636e+02                  2.712353e-03                  
4.000000e-02                  1.642619e+03                  -4.007859e+03                 -2.365240e+03                 2.619021e+02                  3.544930e-03                  
5.000000e-02                  1.500170e+03                  -3.865295e+03                 -2.365126e+03                 2.391898e+02                  4.312755e-03                  
6.000000e-02                  1.330747e+03                  -3.695221e+03                 -2.364474e+03                 2.121768e+02                  4.996634e-03                  
7.000000e-02                  1.147576e+03                  -3.510818e+03                 -2.363242e+03                 1.829717e+02                  5.578079e-03                  
8.000000e-02                  9.712169e+02                  -3.333114e+03                 -2.361897e+03                 1.548526e+02                  6.042765e-03                  
9.000000e-02                  8.230270e+02                  -3.184010e+03                 -2.360983e+03                 1.312249e+02                  6.384406e-03                  
1.000000e-01                  7.176679e+02                  -3.078354e+03                 -2.360686e+03                 1.144263e+02                  6.606608e-03                  
1.100000e-01                  6.599545e+02                  -3.020907e+03                 -2.360953e+03                 1.052243e+02                  6.721791e-03                  
1.200000e-01                  6.456392e+02                  -3.007228e+03                 -2.361589e+03                 1.029419e+02                  6.748293e-03                  
1.300000e-01                  6.644456e+02                  -3.026781e+03                 -2.362336e+03                 1.059404e+02                  6.706926e-03                  
1.400000e-01                  7.039584e+02                  -3.066952e+03                 -2.362993e+03                 1.122404e+02                  6.617952e-03                  
1.500000e-01                  7.527383e+02                  -3.116220e+03                 -2.363481e+03                 1.200180e+02                  6.499032e-03                  
1.600000e-01                  8.018172e+02                  -3.165620e+03                 -2.363803e+03                 1.278432e+02                  6.364259e-03                  
1.700000e-01                  8.449413e+02                  -3.208923e+03                 -2.363982e+03                 1.347190e+02                  6.223992e-03                  
1.800000e-01                  8.783400e+02                  -3.242381e+03                 -2.364041e+03                 1.400441e+02                  6.085164e-03                  
1.900000e-01                  9.003716e+02                  -3.264388e+03                 -2.364017e+03                 1.435569e+02                  5.951800e-03                  
2.000000e-01                  9.110089e+02                  -3.274957e+03                 -2.363948e+03                 1.452529e+02                  5.825641e-03                  
2.100000e-01                  9.112738e+02                  -3.275126e+03                 -2.363852e+03                 1.452951e+02                  5.706740e-03                  
2.200000e-01                  9.029557e+02                  -3.266667e+03                 -2.363712e+03                 1.439689e+02                  5.593992e-03                  
2.300000e-01                  8.887356e+02                  -3.252239e+03                 -2.363503e+03                 1.417016e+02                  5.485581e-03                  
2.400000e-01                  8.722774e+02                  -3.235540e+03                 -2.363262e+03                 1.390775e+02                  5.379397e-03                  
2.500000e-01                  8.575448e+02                  -3.220639e+03                 -2.363094e+03                 1.367285e+02                  5.273488e-03                  
2.600000e-01                  8.473628e+02                  -3.210429e+03                 -2.363066e+03                 1.351051e+02                  5.166445e-03                  
2.700000e-01                  8.425385e+02                  -3.205669e+03                 -2.363130e+03                 1.343359e+02                  5.057572e-03                  
2.800000e-01                  8.423666e+02                  -3.205578e+03                 -2.363212e+03                 1.343085e+02                  4.946791e-03                  
2.900000e-01                  8.455930e+02                  -3.208886e+03                 -2.363293e+03                 1.348229e+02                  4.834421e-03                  
3.000000e-01                  8.508358e+02                  -3.214219e+03                 -2.363383e+03                 1.356588e+02                  4.720991e-03                  
3.100000e-01                  8.566893e+02                  -3.220144e+03                 -2.363455e+03                 1.365921e+02                  4.607084e-03                  
3.200000e-01                  8.621455e+02                  -3.225601e+03                 -2.363455e+03                 1.374620e+02                  4.493210e-03                  
3.300000e-01                  8.671908e+02                  -3.230582e+03                 -2.363391e+03                 1.382665e+02                  4.379735e-03                  
3.400000e-01                  8.725857e+02                  -3.235937e+03                 -2.363351e+03                 1.391266e+02                  4.266908e-03                  
3.500000e-01                  8.788996e+02                  -3.242229e+03                 -2.363330e+03                 1.401333e+02                  4.154973e-03                  
3.600000e-01                  8.865085e+02                  -3.249757e+03                 -2.363248e+03                 1.413465e+02                  4.044202e-03                  
3.700000e-01                  8.963144e+02                  -3.259462e+03                 -2.363148e+03                 1.429100e+02                  3.934885e-03                  
3.800000e-01                  9.093075e+02                  -3.272434e+03                 -2.363127e+03                 1.449816e+02                  3.827392e-03                  
3.900000e-01                  9.254335e+02                  -3.288635e+03                 -2.363202e+03                 1.475528e+02                  3.722253e-03                  
4.000000e-01                  9.433209e+02                  -3.306644e+03                 -2.363323e+03                 1.504048e+02                  3.620149e-03                  
4.100000e-01                  9.608904e+02                  -3.324334e+03                 -2.363444e+03                 1.532061e+02                  3.521810e-03                  
4.200000e-01                  9.760554e+02                  -3.339594e+03                 -2.363539e+03                 1.556240e+02                  3.427877e-03                  
4.300000e-01                  9.871574e+02                  -3.350756e+03                 -2.363599e+03                 1.573942e+02                  3.338787e-03                  
4.400000e-01                  9.931656e+02                  -3.356785e+03                 -2.363620e+03                 1.583521e+02                  3.254706e-03                  
4.500000e-01                  9.937550e+02                  -3.357353e+03                 -2.363598e+03                 1.584461e+02                  3.175511e-03                  
4.600000e-01                  9.893491e+02                  -3.352882e+03                 -2.363533e+03                 1.577436e+02                  3.100812e-03                  
4.700000e-01                  9.810549e+02                  -3.344500e+03                 -2.363445e+03                 1.564212e+02                  3.030014e-03                  
4.800000e-01                  9.703273e+02                  -3.333698e+03                 -2.363371e+03                 1.547107e+02                  2.962407e-03                  
4.900000e-01                  9.584493e+02                  -3.321781e+03                 -2.363332e+03                 1.528169e+02                  2.897255e-03                  
5.000000e-01                  9.462521e+02                  -3.309561e+03                 -2.363309e+03                 1.508721e+02                  2.833858e-03                  
5.100000e-01                  9.343359e+02                  -3.297601e+03                 -2.363265e+03                 1.489722e+02                  2.771570e-03                  
5.200000e-01                  9.235365e+02                  -3.286719e+03                 -2.363183e+03                 1.472503e+02                  2.709804e-03                  
5.300000e-01                  9.151462e+02                  -3.278229e+03                 -2.363082e+03                 1.459126e+02                  2.648050e-03                  
5.400000e-01                  9.106157e+02                  -3.273628e+03                 -2.363013e+03                 1.451902e+02                  2.585931e-03                  
5.500000e-01                  9.109169e+02                  -3.273925e+03                 -2.363008e+03                 1.452382e+02                  2.523264e-03                  
5.600000e-01                  9.160866e+02                  -3.279147e+03                 -2.363060e+03                 1.460625e+02                  2.460090e-03                  
5.700000e-01                  9.253298e+02                  -3.288458e+03                 -2.363129e+03                 1.475363e+02                  2.396657e-03                  
5.800000e-01                  9.375213e+02                  -3.300708e+03                 -2.363186e+03                 1.494801e+02                  2.333353e-03                  
5.900000e-01                  9.515589e+02                  -3.314806e+03                 -2.363247e+03                 1.517183e+02                  2.270649e-03                  
6.000000e-01                  9.662410e+02                  -3.329578e+03                 -2.363337e+03                 1.540592e+02                  2.209048e-03                  
6.100000e-01                  9.800266e+02                  -3.343467e+03                 -2.363441e+03                 1.562572e+02                  2.149043e-03                  
6.200000e-01                  9.912795e+02                  -3.354786e+03                 -2.363506e+03                 1.580514e+02                  2.091051e-03                  
6.300000e-01                  9.989671e+02                  -3.362458e+03                 -2.363491e+03                 1.592771e+02                  2.035347e-03                  
6.400000e-01                  1.003236e+03                  -3.366631e+03                 -2.363395e+03                 1.599578e+02                  1.982022e-03                  
6.500000e-01                  1.005428e+03                  -3.368684e+03                 -2.363256e+03                 1.603072e+02                  1.931008e-03                  
6.600000e-01                  1.007490e+03                  -3.370628e+03                 -2.363138e+03                 1.606361e+02                  1.882150e-03                  
6.700000e-01                  1.011101e+03                  -3.374189e+03                 -2.363088e+03                 1.612118e+02                  1.835307e-03                  
6.800000e-01                  1.016958e+03                  -3.380077e+03                 -2.363119e+03                 1.621456e+02                  1.790426e-03                  
6.900000e-01                  1.024591e+03                  -3.387798e+03                 -2.363207e+03                 1.633626e+02                  1.747568e-03                  
7.000000e-01                  1.032655e+03                  -3.395972e+03                 -2.363316e+03                 1.646484e+02                  1.706879e-03                  
7.100000e-01                  1.039468e+03                  -3.402883e+03                 -2.363415e+03                 1.657347e+02                  1.668530e-03                  
7.200000e-01                  1.043495e+03                  -3.406980e+03                 -2.363485e+03                 1.663767e+02                  1.632647e-03                  
7.300000e-01                  1.043651e+03                  -3.407173e+03                 -2.363522e+03                 1.664016e+02                  1.599257e-03                  
7.400000e-01                  1.039447e+03                  -3.402964e+03                 -2.363517e+03                 1.657312e+02                  1.568260e-03                  
7.500000e-01                  1.031131e+03                  -3.394591e+03                 -2.363460e+03                 1.644054e+02                  1.539413e-03                  
7.600000e-01                  1.019834e+03                  -3.383183e+03                 -2.363349e+03                 1.626042e+02                  1.512346e-03                  
7.700000e-01                  1.007563e+03                  -3.370759e+03                 -2.363196e+03                 1.606477e+02                  1.486608e-03                  
7.800000e-01                  9.969420e+02                  -3.359980e+03                 -2.363038e+03                 1.589542e+02                  1.461736e-03                  
7.900000e-01                  9.905344e+02                  -3.353490e+03                 -2.362956e+03                 1.579326e+02                  1.437348e-03                  
8.000000e-01                  9.896301e+02                  -3.352656e+03                 -2.363026e+03                 1.577884e+02                  1.413232e-03                  
8.100000e-01                  9.933612e+02                  -3.356551e+03                 -2.363189e+03                 1.583833e+02                  1.389385e-03                  
8.200000e-01                  9.994149e+02                  -3.362743e+03                 -2.363328e+03                 1.593485e+02                  1.365965e-03                  
8.300000e-01                  1.005550e+03                  -3.368957e+03                 -2.363407e+03                 1.603267e+02                  1.343184e-03                  
8.400000e-01                  1.010278e+03                  -3.373728e+03                 -2.363450e+03                 1.610806e+02                  1.321234e-03                  
8.500000e-01                  1.012746e+03                  -3.376215e+03                 -2.363469e+03                 1.614740e+02                  1.300242e-03                  
8.600000e-01                  1.012583e+03                  -3.376043e+03                 -2.363460e+03                 1.614481e+02                  1.280252e-03                  
8.700000e-01                  1.009937e+03                  -3.373357e+03                 -2.363420e+03                 1.610262e+02                  1.261223e-03                  
8.800000e-01                  1.005452e+03                  -3.368817e+03                 -2.363365e+03                 1.603111e+02                  1.243042e-03                  
8.900000e-01                  1.000052e+03                  -3.363368e+03                 -2.363316e+03                 1.594501e+02                  1.225546e-03                  
9.000000e-01                  9.946320e+02                  -3.357914e+03                 -2.363282e+03                 1.585859e+02                  1.208558e-03                  
9.100000e-01                  9.899154e+02                  -3.353166e+03                 -2.363251e+03                 1.578339e+02                  1.191908e-03                  
9.200000e-01                  9.865673e+02                  -3.349774e+03                 -2.363207e+03                 1.573001e+02                  1.175452e-03                  
9.300000e-01                  9.853263e+02                  -3.348486e+03                 -2.363160e+03                 1.571022e+02                  1.159081e-03                  
9.400000e-01                  9.868143e+02                  -3.349962e+03                 -2.363148e+03                 1.573395e+02                  1.142747e-03                  
9.500000e-01                  9.910732e+02                  -3.354264e+03                 -2.363191e+03                 1.580185e+02                  1.126476e-03                  
9.600000e-01                  9.973389e+02                  -3.360603e+03                 -2.363264e+03                 1.590175e+02                  1.110375e-03                  
9.700000e-01                  1.004370e+03                  -3.367698e+03                 -2.363328e+03                 1.601385e+02                  1.094607e-03                  
9.800000e-01                  1.011016e+03                  -3.374376e+03                 -2.363361e+03                 1.611982e+02                  1.079347e-03                  
9.900000e-01                  1.016547e+03                  -3.379916e+03                 -2.363369e+03                 1.620801e+02                  1.064760e-03                  
1.000000e+00                  1.020623e+03                  -3.383992e+03                 -2.363369e+03                 1.627300e+02                  1.050972e-03                  
1.010000e+00                  1.023113e+03                  -3.386482e+03                 -2.363369e+03                 1.631269e+02                  1.038075e-03                  
1.020000e+00                  1.023932e+03                  -3.387310e+03                 -2.363378e+03                 1.632576e+02                  1.026119e-03                  
1.030000e+00                  1.022923e+03                  -3.386323e+03                 -2.363401e+03                 1.630967e+02                  1.015121e-03                  
1.040000e+00                  1.019784e+03                  -3.383214e+03                 -2.363430e+03                 1.625962e+02                  1.005057e-03                  
1.050000e+00                  1.014204e+03                  -3.377643e+03                 -2.363439e+03                 1.617066e+02                  9.958585e-04                  
1.060000e+00                  1.006216e+03                  -3.369616e+03                 -2.363400e+03                 1.604329e+02                  9.873976e-04                  
1.070000e+00                  9.965303e+02                  -3.359846e+03                 -2.363316e+03                 1.588886e+02                  9.794899e-04                  
1.080000e+00                  9.864478e+02                  -3.349677e+03                 -2.363229e+03                 1.572810e+02                  9.719119e-04                  
